dose,RR,lb,ub
0,1,1,1
0.077957957957958,0.995704537107281,0.994568958117871,0.996841412678121
0.155915915915916,0.991428123050271,0.989168168978254,0.993693240442912
0.233873873873874,0.987171266137877,0.983798212480736,0.990555884657435
0.311831831831832,0.982934464865322,0.978459653194409,0.987429741293697
0.38978978978979,0.978718208030776,0.973153040587436,0.984315200980877
0.467747747747748,0.974522974854373,0.967878909259458,0.981212649055084
0.545705705705706,0.97034923509951,0.962637779176657,0.978122465610621
0.623663663663664,0.966197449196341,0.95743015590929,0.975045025552717
0.701621621621622,0.962068068367374,0.952256530871533,0.971980698651673
0.77957957957958,0.957961534755078,0.947117381563449,0.968929849598402
0.857537537537538,0.953878281551411,0.942013171814931,0.965892838061323
0.935495495495495,0.949818733129189,0.936944352031452,0.962870018744563
1.01345345345345,0.945783305175212,0.931911359441472,0.959861741447446
1.09141141141141,0.941772404825057,0.92691461834534306,0.95686835112522
1.16936936936937,0.937786430799468,0.921954540365584,0.953890187951001
1.24732732732733,0.933825773542266,0.917031524698368,0.950927587378899
1.32528528528529,0.929890815359694,0.912145958366099,0.947980880208277
1.40324324324324,0.925981930561134,0.907298216470942,0.945050392649136
1.4812012012012,0.922099485601123,0.90248866244918,0.942136446388583
1.55915915915916,0.9182438392226,0.897717648326287,0.939239358658345
1.63711711711712,0.914415342601308,0.892985514972585,0.936359442303313
1.71507507507508,0.910614339491305,0.88829259235939,0.933497005851082
1.79303303303303,0.906841166371507,0.883639199815527,0.930652353582454
1.87099099099099,0.903096152593207,0.879025646284125,0.927825785602886
1.94894894894895,0.899379620528515,0.874452230579588,0.925017597914852
2.02690690690691,0.895691885719662,0.869919241644643,0.922228082491093
2.10486486486486,0.89203325702912,0.865426958807394,0.919457527348733
2.18282282282282,0.888404036790469,0.860975652038287,0.916706216624234
2.26078078078078,0.884804520959988,0.856565582206903,0.913974430649176
2.33873873873874,0.881234999268906,0.852197001338525,0.911262446026822
2.4166966966967,0.877695755376266,0.847870152870383,0.908570535709471
2.49465465465465,0.874187067022382,0.843585271907529,0.905898969076554
2.57261261261261,0.870709206182817,0.839342585478284,0.903248012013477
2.65057057057057,0.86726243922287,0.835142312789178,0.900617926991172
2.72852852852853,0.863847027052527,0.830984665479362,0.898008973146354
2.80648648648649,0.860463225281835,0.826869847874417,0.895421406362453
2.88444444444444,0.857111284376686,0.822798057239528,0.892855479351221
2.9624024024024,0.85379144981496,0.818769484031985,0.89031144173499
3.04036036036036,0.850503962243013,0.814784312152971,0.887789540129559
3.11831831831832,0.847249057632491,0.810842719198606,0.885290018227715
3.19627627627628,0.84402696743742,0.806944876710218,0.882813116883363
3.27423423423423,0.840837918751593,0.803090950423825,0.880359074196257
3.35219219219219,0.837682134466189,0.799281100518794,0.877928125597323
3.43015015015015,0.834559833427647,0.795515481865679,0.875520503934559
3.50810810810811,0.831471230595757,0.791794244273208,0.873136439559511
3.58606606606607,0.82841653720196,0.788117532734426,0.870776160414314
3.66402402402402,0.825395960907856,0.784485487671978,0.868439892119293
3.74198198198198,0.822409705963902,0.78089824518254,0.866127858061107
3.81993993993994,0.819457973368291,0.777355937280396,0.863840279481456
3.8978978978979,0.816540961026025,0.773858692140164,0.861577375566316
3.97585585585586,0.813658863908159,0.770406634338694,0.859339363535728
4.05381381381381,0.810811874211233,0.766999885096139,0.857126458734121
4.13177177177177,0.808000181516878,0.763638562516219,0.854938874721169
4.20972972972973,0.805223972951619,0.760322781825703,0.852776823363195
4.28768768768769,0.802483433346867,0.757052655613131,0.85064051492511
4.36564564564565,0.799778745399107,0.753828294066803,0.848530158162895
4.4436036036036,0.797110089830307,0.750649805212068,0.846445960416624
4.52156156156156,0.794477645548546,0.747517295147941,0.844388127704046
4.59951951951952,0.79188158980888,0.744430868283096,0.842356864814709
4.67747747747748,0.789322098374463,0.741390627571271,0.840352375404655
4.75543543543544,0.786799345677943,0.738396674746128,0.83837486209168
4.83339339339339,0.78431350498315,0.735449110555614,0.836424526551164
4.91135135135135,0.781864748547101,0.732548034995887,0.834501569612501
4.98930930930931,0.779453247782342,0.729693547544843,0.83260619135611
5.06726726726727,0.777079173419665,0.726885747395315,0.83073859121107
5.14522522522523,0.774742680952504,0.724124716243668,0.828898956526568
5.22318318318318,0.772443596416812,0.721410146285317,0.827087216221875
5.30114114114114,0.770181425873263,0.718741352995343,0.825303047178385
5.3790990990991,0.76795566926288,0.716117647684897,0.823546119634939
5.45705705705706,0.765765834098926,0.71353835365611,0.821816107947911
5.53501501501501,0.763611435308199,0.711002805930748,0.820112690512
5.61297297297297,0.761491995075565,0.70851035098507,0.81843554968244
5.69093093093093,0.759407042691682,0.706060346490707,0.816784371698626
5.76888888888889,0.757356114403812,0.703652161061436,0.815158846609098
5.84684684684685,0.755338753269665,0.701285174005679,0.81355866819787
5.9248048048048,0.753354509014207,0.698958775084587,0.811983533912072
6.00276276276276,0.751402937889351,0.696672364275579,0.81043314479087
6.08072072072072,0.749483602536478,0.694425351541176,0.80890720539564
6.15867867867868,0.747596071851712,0.692217156603021,0.807405423741374
6.23663663663664,0.745739920853895,0.69004720872093,0.805927511229285
6.31459459459459,0.743914730555195,0.687914946476871,0.804473182580595
6.39255255255255,0.742120087834288,0.68581981756373,0.803042155771466
6.47051051051051,0.740355585312058,0.683761278578746,0.801634151969069
6.54846846846847,0.738620821229754,0.681738794821512,0.800248895468757
6.62642642642643,0.736915399329555,0.679751840096408,0.79888611363232
6.70438438438438,0.735238928737483,0.677799896519379,0.797545536827307
6.78234234234234,0.733591023848608,0.675882454328919,0.796226898367381
6.8603003003003,0.731971304214512,0.673999011701197,0.794929934453705
6.93825825825826,0.730379394432939,0.672149074569182,0.793654384117315
7.01621621621622,0.728814924039596,0.670332156445702,0.79239998916249
7.09417417417417,0.727277527402056,0.668547778250319,0.791166494111067
7.17213213213213,0.725766843615712,0.666795468139934,0.789953646147714
7.25009009009009,0.724282516401746,0.665074761343038,0.788761195066115
7.32804804804805,0.722824194007062,0.663385199997509,0.78758889321607
7.4060060060060096,0.721391529106135,0.66172633299187,0.786436495451484
7.48396396396396,0.719984178704753,0.660097715809941,0.785303759079226
7.56192192192192,0.718601804045591,0.658498910378779,0.784190443808849
7.63987987987988,0.717244070515595,0.656929484919846,0.783096311703147
7.71783783783784,0.71591064755512,0.655389013803322,0.782021127129539
7.7957957957958,0.714601208568803,0.653877077405485,0.780964656712265
7.87375375375375,0.713315430838117,0.652393261969089,0.779926669285369
7.95171171171171,0.712052995435589,0.650937159466674,0.778906935846475
8.02966966966967,0.710813587140628,0.649508367466727,0.77790522951132
8.10762762762763,0.709596894356943,0.64810648900264,0.776921325469042
8.18558558558559,0.708402609031517,0.646731132444395,0.775955000938209
8.26354354354354,0.707230426575096,0.645381911372908,0.775006035123574
8.3415015015015,0.706080045784174,0.644058444456984,0.774074209173542
8.41945945945946,0.704951168764436,0.642760355332807,0.773159306138337
8.49741741741742,0.703843500855625,0.64148727248592,0.772261110928862
8.57537537537537,0.702756750557824,0.640238829135634,0.771379410276234
8.65333333333333,0.7016906294591,0.639014663121813,0.770513992691979
8.73129129129129,0.700644852164497,0.637814416793972,0.769664648428891
8.80924924924925,0.699619136226357,0.636637736902658,0.768831169442526
8.88720720720721,0.698613202075923,0.635484274493041,0.768013349353334
8.96516516516517,0.69762677295622,0.63435368480068,0.767210983409405
9.04312312312312,0.69665957485618,0.633245627149408,0.766423868449837
9.12108108108108,0.695711336445982,0.632159764851304,0.7656518028687
9.19903903903904,0.6947817890136,0.631095765108687,0.76489458657959
9.276996996997,0.693870666402516,0.630053298918108,0.764152020980767
9.35495495495496,0.692977704950594,0.629032040976286,0.763423908920875
9.43291291291291,0.692102643430082,0.628031669587946,0.762710054665212
9.51087087087087,0.691245222988729,0.627051866575535,0.762010263862564
9.58882882882883,0.690405187091991,0.626092317190755,0.761324343512588
9.66678678678679,0.68958228146631,0.62515271002789,0.760652101933729
9.74474474474474,0.688776254043446,0.624232736938891,0.759993348731667
9.8227027027027,0.68798685490584,0.623332092950174,0.759347894768294
9.90066066066066,0.687213836232999,0.622450476181104,0.7587155521312
9.97861861861862,0.686456952248876,0.621587587764135,0.758096134103669
10.0565765765766,0.685715959170232,0.62074313176656,0.757489455135172
10.1345345345345,0.684990615155966,0.619916815113857,0.756895330812363
10.2124924924925,0.68428068025739,0.619108347514586,0.756313577830551
10.2904504504505,0.683585916369439,0.618317441386815,0.755744013965656
10.3684084084084,0.682906087182803,0.617543811786047,0.755186458046641
10.4463663663664,0.68224095813696,0.616787176334616,0.75464072992841
10.5243243243243,0.681590296374096,0.616047255152526,0.754106650465161
10.6022822822823,0.680953870693904,0.61532377078971,0.753584041484204
10.6802402402402,0.680331451509245,0.61461644815968,0.753072725760222
10.7581981981982,0.679722810802659,0.613925014474547,0.752572526989977
10.8361561561562,0.679127722083709,0.613249199181384,0.752083269767452
10.9141141141141,0.678545960347148,0.61258873389991,0.751604779559433
10.9920720720721,0.677977302031909,0.611943352361471,0.751136882681507
11.07003003003,0.677421524980881,0.611312790349304,0.750679406274499
11.147987987988,0.676878408401485,0.610696785640051,0.750232178281307
11.2259459459459,0.676347732827024,0.610095077946512,0.749795027424168
11.3039039039039,0.675829280078803,0.609507408861616,0.749367783182327
11.3818618618619,0.675322833229006,0.608933521803582,0.748950275770102
11.4598198198198,0.674828176564322,0.608373161962271,0.74854233611536
11.5377777777778,0.674345095550306,0.607826076246688,0.748143795838389
11.6157357357357,0.673873376796478,0.607292013233631,0.747754487231152
11.6936936936937,0.673412808022131,0.606770723117474,0.747374243236937
11.7716516516517,0.672963178022861,0.606261957661051,0.747002897430394
11.8496096096096,0.672524276637791,0.605765470147642,0.746640283997945
11.9275675675676,0.672095894717502,0.605281015334039,0.746286237718575
12.0055255255255,0.671677824092638,0.604808349404675,0.745940593945003
12.0834834834835,0.671269857543201,0.604347229926809,0.745603188585214
12.1614414414414,0.670871788768519,0.603897415806748,0.745273858084364
12.2393993993994,0.670483412357868,0.603458667247093,0.744952439407053
12.3173573573574,0.670104523761769,0.603030745704999,0.744638770019956
12.3953153153153,0.669734919263927,0.60261341385144,0.744332687874814
12.4732732732733,0.669374395953818,0.60220643553145,0.74403403139178
12.5512312312312,0.669022751699917,0.601809575725359,0.74374263944313
12.6291891891892,0.668679785123562,0.601422600510984,0.743458351337309
12.7071471471471,0.668345295573444,0.601045277026778,0.743181006803343
12.7851051051051,0.668019083100721,0.600677373435925,0.742910445975587
12.8630630630631,0.667700948434747,0.600318658891378,0.742646509378827
12.941021021021,0.667390692959424,0.599968903501813,0.74238903791372
13.018978978979,0.667088118690149,0.599627878298506,0.742137872842578
13.0969369369369,0.666793028251372,0.599295355203126,0.741892855775493
13.1748948948949,0.666505224854756,0.598971106996411,0.741653828656797
13.2528528528529,0.666224512277922,0.598654907287756,0.741420633751869
13.3308108108108,0.665950694843794,0.598346530485675,0.741193113634258
13.4087687687688,0.66568357740053,0.598045751769138,0.740971111173162
13.4867267267267,0.665422965302027,0.597752347059788,0.740754469521229
13.5646846846847,0.665168664389019,0.597466092995014,0.740543032102683
13.6426426426426,0.664920480970741,0.59718676690188,0.7403366426018
13.7206006006006,0.664678221807171,0.596914146771909,0.740135144951691
13.7985585585586,0.664441694091839,0.596648011236709,0.739938383323435
13.8765165165165,0.664210705435206,0.59638813954443,0.739746202115521
13.9544744744745,0.663985063848602,0.59613431153707,0.73955844594363
14.0324324324324,0.66376457772873,0.595886307628588,0.739374959630742
14.1103903903904,0.663549055842727,0.595643908783854,0.73919558819756
14.1883483483483,0.663338307313781,0.595406896498408,0.739020176853274
14.2663063063063,0.663132141607298,0.595175052779031,0.738848570986633
14.3442642642643,0.662930368517627,0.59494816012513,0.738680616157358
14.4222222222222,0.662732798155334,0.594726001510911,0.738516158087869
14.5001801801802,0.662539240935013,0.594508360368369,0.738355042655339
14.5781381381381,0.662349507563659,0.594295020571058,0.738197115884074
14.6560960960961,0.662163409029567,0.59408576641865,0.738042223938212
14.7340540540541,0.661980756591789,0.593880382622296,0.737890213114753
14.812012012012,0.661801361770118,0.593678654290749,0.737740929836908
14.88996996997,0.661625036335617,0.593480366917281,0.737594220647774
14.9679279279279,0.661451592301688,0.593285306367365,0.73744993220433
15.0458858858859,0.661280841915667,0.593093258867137,0.737307911271765
15.1238438438438,0.661112597650961,0.592904010992619,0.737168004718124
15.2018018018018,0.660946672199718,0.592717349659711,0.737030059509282
15.2797597597598,0.66078287846602,0.592533062114947,0.736893922704241
15.3577177177177,0.660621029559622,0.592350935927004,0.736759441450761
15.4356756756757,0.660460938790202,0.592170758978972,0.736626462981306
15.5136336336336,0.660302419662155,0.591992319461376,0.736494834609325
15.5915915915916,0.660145285869903,0.591815405865947,0.73636440372586
15.6695495495495,0.659989351293738,0.591639806980139,0.736235017796481
15.7475075075075,0.659834429996189,0.591465311882397,0.736106524358547
15.8254654654655,0.65968033621891,0.59129170993816,0.735978771018803
15.9034234234234,0.659526884380093,0.591118790796605,0.735851605451301
15.9813813813814,0.659373889072409,0.590946344388128,0.735724875395657
16.0593393393393,0.65922116506146,0.590774160922562,0.735598428655637
16.1372972972973,0.659068539023632,0.590602044181081,0.735472122743897
16.2152552552553,0.658915948963809,0.590429924077836,0.735345906589993
16.2932132132132,0.658763394232219,0.590257800007792,0.735219779517738
16.3711711711712,0.658610874820681,0.590085672092347,0.735093741378251
16.4491291291291,0.658458390721019,0.589913540452729,0.734967792022833
16.5270870870871,0.658305941925056,0.589741405209994,0.734841931302963
16.605045045045,0.65815352842462,0.589569266485028,0.734716159070305
16.683003003003,0.658001150211539,0.589397124398544,0.734590475176701
16.760960960961,0.657848807277642,0.58922497907108,0.734464879474177
16.8389189189189,0.657696499614761,0.589052830623005,0.73433937181494
16.9168768768769,0.657544227214731,0.58888067917451,0.734213952051381
16.9948348348348,0.657391990069387,0.588708524845614,0.734088620036074
17.0727927927928,0.657239788170568,0.588536367756162,0.733963375621778
17.1507507507507,0.657087621510112,0.588364208025823,0.733838218661435
17.2287087087087,0.656935490079861,0.58819204577409,0.733713149008173
17.3066666666667,0.656783393871659,0.588019881120281,0.733588166515305
17.3846246246246,0.65663133287735,0.587847714183537,0.733463271036328
17.4625825825826,0.656479307088782,0.587675545082821,0.733338462424928
17.5405405405405,0.656327316497805,0.587503373936922,0.733213740534977
17.6184984984985,0.656175361096268,0.587331200864447,0.733089105220532
17.6964564564565,0.656023440876025,0.587159025983827,0.73296455633584
17.7744144144144,0.65587155582893,0.586986849413314,0.732840093735334
17.8523723723724,0.65571970594684,0.586814671270982,0.732715717273636
17.9303303303303,0.655567891221613,0.586642491674723,0.732591426805558
18.0082882882883,0.655416111645111,0.586470310742253,0.732467222186099
18.0862462462462,0.655264367209194,0.586298128591103,0.73234310327045
18.1642042042042,0.655112657905727,0.586125945338626,0.732219069913989
18.2421621621622,0.654960983726576,0.585953761101994,0.732095121972287
18.3201201201201,0.65480934466361,0.585781575998197,0.731971259301105
18.3980780780781,0.654657740708697,0.585609390144043,0.731847481756394
18.476036036036,0.65450617185371,0.585437203656158,0.731723789194298
18.553993993994,0.654354638090521,0.585265016650985,0.731600181471151
18.631951951952,0.654203139411006,0.585092829244784,0.731476658443481
18.7099099099099,0.654051675807044,0.584920641553632,0.731353219968009
18.7878678678679,0.653900247270512,0.584748453693422,0.731229865901647
18.8658258258258,0.653748853793292,0.584576265779864,0.731106596101503
18.9437837837838,0.653597495367267,0.58440407792848,0.730983410424875
19.0217417417417,0.653446171984322,0.584231890254612,0.730860308729258
19.0996996996997,0.653294883636342,0.584059702873413,0.73073729087234
19.1776576576577,0.653143630315218,0.583887515899853,0.730614356712005
19.2556156156156,0.652992412012839,0.583715329448715,0.730491506106332
19.3335735735736,0.652841228721098,0.583543143634595,0.730368738913593
19.4115315315315,0.652690080431888,0.583370958571904,0.730246054992257
19.4894894894895,0.652538967137106,0.583198774374865,0.730123454200992
19.5674474474474,0.65238788882865,0.583026591157516,0.730000936398657
19.6454054054054,0.652236845498421,0.582854409033705,0.729878501444312
19.7233633633634,0.652085837138318,0.582682228117093,0.729756149197212
19.8013213213213,0.651934863740247,0.582510048521153,0.72963387951681
19.8792792792793,0.651783925296111,0.58233787035917,0.729511692262755
19.9572372372372,0.65163302179782,0.582165693744241,0.729389587294896
20.0351951951952,0.651482153237282,0.581993518789271,0.729267564473278
20.1131531531532,0.651331319606408,0.581821345606981,0.729145623658148
20.1911111111111,0.651180520897111,0.581649174309896,0.729023764709947
20.2690690690691,0.651029757101306,0.581477005010356,0.728901987489319
20.347027027027,0.650879028210908,0.581304837820508,0.728780291857104
20.424984984985,0.650728334217839,0.581132672852312,0.728658677674344
20.5029429429429,0.650577675114017,0.580960510217535,0.728537144802281
20.5809009009009,0.650427050891365,0.580788350027752,0.728415693102355
20.6588588588589,0.650276461541807,0.58061619239435,0.728294322436206
20.7368168168168,0.650125907057268,0.58044403742852,0.728173032665678
20.8147747747748,0.649975387429678,0.580271885241267,0.728051823652813
20.8927327327327,0.649824902650966,0.5800997359434,0.727930695259855
20.9706906906907,0.649674452713064,0.579927589645538,0.727809647349249
21.0486486486486,0.649524037607904,0.579755446458105,0.727688679783641
21.1266066066066,0.649373657327423,0.579583306491335,0.72756779242588
21.2045645645646,0.649223311863556,0.579411169855268,0.727446985139015
21.2825225225225,0.649073001208245,0.579239036659751,0.727326257786301
21.3604804804805,0.64892272535343,0.579066907014438,0.727205610231192
21.4384384384384,0.648772484291054,0.578894781028789,0.727085042337346
21.5163963963964,0.64862227801306,0.57872265881207,0.726964553968622
21.5943543543544,0.648472106511397,0.578550540473354,0.726844144989085
21.6723123123123,0.648321969778011,0.578378426121519,0.726723815263002
21.7502702702703,0.648171867804855,0.578206315865249,0.726603564654844
21.8282282282282,0.64802180058388,0.578034209813034,0.726483393029284
21.9061861861862,0.647871768107039,0.577862108073168,0.726363300251199
21.9841441441441,0.647721770366289,0.577690010753749,0.726243286185673
22.0621021021021,0.647571807353588,0.577517917962684,0.726123350697991
